#theta_nq = 65 +/- 5 deg :: Q2 = 3.5 +/- 0.5 GeV2 :: All (*_syst) errors are relative, dsig / sig [%],  all(*_err) are absolute. 
#pm_bin: central bin with +/- 0.02 GeV. The pwia/fsi Xsec are from Laget calculation. red_dataXsec_avg with nan values have > 50%% stats uncertainty should be ignored.
#Each of the quantities here have been averaged over overlapping (Pm, thnq) bins for Pm=80, 580(sets 1,2) and 750(sets 1,2,3). Energy and angle units are in [Gev] and [deg]  
#!pm_bin[i,0]/  pm_avg[f,1]/  red_dataXsec_avg[f,2]/  rel_stats_err[f,3]/  rel_norm_syst[f,4]/  rel_kin_syst[f,5]/ rel_syst_tot[f,6]/   rel_tot_err[f,7]/
0.020           0.03201       5.46553E+00              9.55                 3.66                 1.27                 3.87                 10.30                
0.060           0.05898       1.72017E+00              4.87                 3.66                 2.83                 4.63                 6.72                 
0.100           0.09658       3.37215E-01              4.86                 3.66                 4.24                 5.60                 7.42                 
0.140           0.13579       7.71106E-02              7.00                 3.66                 4.18                 5.56                 8.94                 
0.180           0.17593       1.60043E-02              13.98                3.66                 3.31                 4.94                 14.83                
0.220           0.21683       3.86961E-03              31.70                3.66                 2.54                 4.46                 32.02                
0.260           0.25715       3.21213E-03              35.77                3.66                 1.97                 4.16                 36.01                
0.420           0.42498       8.41352E-04              43.89                3.88                 2.11                 4.41                 44.11                
0.460           0.46269       4.15285E-04              30.13                3.88                 1.95                 4.34                 30.44                
0.500           0.50230       5.38070E-04              15.63                3.86                 1.86                 4.28                 16.20                
0.540           0.54122       2.97346E-04              14.39                3.86                 1.89                 4.30                 15.01                
0.580           0.58318       2.43462E-04              12.73                3.98                 2.40                 4.65                 13.55                
0.620           0.62058       2.56870E-04              11.14                3.98                 2.50                 4.70                 12.09                
0.660           0.66056       1.78182E-04              13.00                3.98                 2.68                 4.80                 13.86                
0.700           0.69892       1.46847E-04              14.18                4.09                 3.30                 5.26                 15.13                
0.740           0.73716       1.17390E-04              17.61                3.98                 3.03                 5.00                 18.30                
0.780           0.77603       7.64768E-05              26.01                3.98                 3.26                 5.14                 26.51                
0.820           0.81601       8.07370E-05              33.59                3.86                 2.91                 4.83                 33.93                
0.860           0.85494       7.90722E-05              46.40                3.86                 3.11                 4.95                 46.66                
